1	0.8925879504044916
2	0.6451399456130124
3	0.35384195289533515
4	0.34814444420780405
5	0.4029101033605833
6	0.6773349667879045
7	0.7466251623243612
8	0.9220420515895166
9	0.7967132492072908
10	0.6144752151203912
11	0.2819105719970996
12	0.17322705937262783
13	0.15715080394779135
14	0.8097517472627825
15	1.0
16	1.0
17	0.9524680951766599
18	1.0
19	0.2282775782464986
20	0.02352250942683158
21	0.002805128333603537
22	0.0022348829091087073
23	0.003246395470718147
24	0.005369661486237472
25	0.0019000115066771348
26	0.0013511678105428595
27	0.08480513362915015
28	1.0
29	1.0
30	1.0
31	1.0
32	0.0807741840889576
33	0.003578496112179884
34	0.004141419638950891
35	0.007550815325235738
36	0.001186616698822083
37	0.00015347187921147657
38	0.004141419638950891
39	0.02592882145501884
40	0.2282775782464986
41	0.9838981538483329
42	0.7838846950415602
43	0.4029101033605833
44	0.06435386265758218
45	0.505715329525985
46	0.4739218161276199
47	0.3715000583087311
48	0.000803736982286617
49	5.609676834340231e-05
50	0.0005715668219861406
51	6.816102218550644e-05
52	0.00033451979230623877
53	4.054532224160943e-05
54	0.002346412357984781
55	1.0
56	0.2282775782464986
57	0.01784991398793898
58	0.04019100294647176
59	1.0
60	0.11358461770179094
61	0.23966952741252573
62	0.968055577146144
63	0.9838981538483329
64	1.0
65	1.0
66	1.0
67	0.21742711012398036
68	0.07947357060373075
69	1.0
70	0.049633734144236996
71	0.020995908477665932
72	0.2320134226836728
73	0.0024635075651007273
74	6.183537071603809e-05
75	0.0003084413155953434
76	4.397339814568434e-05
77	0.0006000902548658376
78	9.901083980761738e-05
79	0.0009608649452023766
80	1.0
81	0.3715000583087311
82	0.14489964968096347
83	0.6245313223904277
84	0.23966952741252573
85	0.015932618141390915
86	0.6045810297425099
87	0.6245313223904277
88	0.1314523061326923
89	0.07819389939674361
90	0.049633734144236996
91	0.08903724340858059
92	0.08903724340858059
93	0.098145599404233
94	1.0
95	0.9838981538483329
96	0.07693483325865831
97	0.02904903818527772
98	0.277371291338266
99	0.7346031188276507
100	0.5574491330158785
101	0.2037578156903431
102	0.41620554942555466
103	0.0022348829091087073
104	0.08209608258032164
105	0.3964225068633132
106	0.20709238541955047
107	0.0965652740621615
108	0.7838846950415602
109	0.48167771661524483
110	0.5224031981891458
111	0.48956054519592274
112	0.4739218161276199
113	0.9220420515895166
114	0.823003625015039
115	0.8925879504044916
116	0.9838981538483329
117	0.9524680951766599
118	0.9524680951766599
119	0.9220420515895166
120	0.7838846950415602
121	0.7466251623243612
122	0.8097517472627825
123	0.6773349667879045
124	0.48167771661524483
125	0.466290799956401
126	0.4513954094697309
127	0.4095038717012343
128	0.43697584363533404
129	0.8640747434825137
130	0.277371291338266
131	0.30574589468138835
132	0.35963270335588476
133	0.25162997965624895
134	0.4299397258291168
135	0.0807741840889576
136	0.48956054519592274
137	0.9371316004437406
138	0.5948461590153626
139	0.5309525138815143
140	0.06756537356313871
141	0.24757827243667338
142	0.4513954094697309
143	0.12318811002815044
144	0.09197534264619907
145	0.07569604040982214
146	0.968055577146144
147	1.0
148	0.03472803056127704
149	0.006962169253653923
150	0.005114431247540004
151	0.003408403375565008
152	0.30082282132372057
153	0.48956054519592274
154	0.9838981538483329
155	0.9371316004437406
156	0.6996860333005961
157	0.15462038588001104
158	0.051271575016962036
159	0.04151724745489983
160	0.14027091400017916
161	0.051271575016962036
162	0.02032520629905422
163	0.5224031981891458
164	0.2139261322475594
165	0.01700147357515921
166	0.210481526578288
167	0.28652413961186873
168	0.6245313223904277
169	1.0
170	0.6996860333005961
171	0.6664286233595221
172	0.6556978921951199
173	0.2320134226836728
174	0.04219669209919026
175	0.3655182215245085
176	0.4095038717012343
177	0.5948461590153626
178	0.8925879504044916
179	0.7967132492072908
180	0.9371316004437406
181	0.9071954723294547
182	0.9524680951766599
183	0.3900393726467364
184	0.3964225068633132
185	0.3837590186752804
186	0.3775797899972563
187	0.32100381758685564
188	0.48956054519592274
189	0.9371316004437406
190	0.8501615448994049
191	0.968055577146144
192	1.0
193	0.7712627042813436
194	0.6996860333005961
195	0.25993340216897615
196	0.028581295041564064
197	0.07569604040982214
198	0.095010394875619
199	0.5948461590153626
200	1.0
